wavelength
914.294
920.488
926.683
932.877
939.071
945.266
951.46
957.655
963.849
970.043
976.238
982.432
988.626
994.821
1001.015
1007.209
1013.404
1019.598
1025.792
1031.987
1038.181
1044.376
1050.57
1056.764
1062.959
1069.153
1075.347
1081.542
1087.736
1093.93
1100.125
1106.319
1112.513
1118.708
1124.902
1131.097
1137.291
1143.485
1149.68
1155.874
1162.068
1168.263
1174.457
1180.651
1186.846
1193.04
1199.234
1205.429
1211.623
1217.818
1224.012
1230.206
1236.401
1242.595
1248.789
1254.984
1261.178
1267.372
1273.567
1279.761
1285.955
1292.15
1298.344
1304.539
1310.733
1316.927
1323.122
1329.316
1335.51
1341.705
1347.899
1354.093
1360.288
1366.482
1372.676
1378.871
1385.065
1391.26
1397.454
1403.648
1409.843
1416.037
1422.231
1428.426
1434.62
1440.814
1447.009
1453.203
1459.397
1465.592
1471.786
1477.981
1484.175
1490.369
1496.564
1502.758
1508.952
1515.147
1521.341
1527.535
1533.73
1539.924
1546.118
1552.313
1558.507
1564.702
1570.896
1577.09
1583.285
1589.479
1595.673
1601.868
1608.062
1614.256
1620.451
1626.645
1632.839
1639.034
1645.228
1651.423
1657.617
1663.811
1670.006
1676.2